Wavelength	I1	I1 dark	R1	R1dark	XCorrect	I1c	R1c	I1c/R1c	Abs	Percent T
nm	uA	uA	uA	uA		uA	uA	uA/uA	OD	T*100
	Abs Detector Raw	Dark Offset for Abs Detector	Ref Detector Raw	Dark Offset for Ref Detector	Linear interp	Dark subtracted Abs Detector	Corrected Ref Detector	Corrected Intensity 	-Log(T)	% Transmittance
500	3.79122319530024	0.00294558675733402	3.0379606104195	0.00290626850874235	0.647101104259491	3.7882776085429	1.96398701613802	1.92887100444899	-3.42529577753046E-4	100.078901460803
498	3.88523349033475		3.10951065896173		0.652579486370087	3.88228790357741	2.02730629747687	1.91499819657701	-2.98321375988571E-4	100.068714633022
496	4.05224734953068		3.23839982348577		0.658019542694092	4.04930176277334	2.12901798943567	1.90195751415265	-3.58435715411656E-4	100.082566941258
494	4.32123858869021		3.44605352626931		0.6634840965271	4.31829300193288	2.28447344752503	1.89027935807757	-4.85195837369271E-4	100.111782900795
492	4.547427804095		3.61767589863042		0.669135093688965	4.54448221733767	2.41876921511549	1.87884077114016	-5.30995119012079E-4	100.122340920071
490	4.62805521099939		3.67441542477089		0.675155639648438	4.62510962424206	2.47884011287126	1.86583620307998	-5.30423167436563E-4	100.122209062322
488	4.62757535016147		3.6692644994985		0.681718409061432	4.62462976340413	2.49942390027962	1.8502782832823	-5.05146932017029E-4	100.116382050953
486	4.76070319875061		3.76813308064641		0.688922226428986	4.75775761199327	2.59394843842799	1.83417586159755	-5.30423975714986E-4	100.122209248663
484	5.07416137132621		4.00292977648555		0.696800053119659	5.07121578456888	2.78721659283813	1.81945522195856	-6.2959210338858E-4	100.145074069956
482	5.42879458768261		4.26279044683392		0.705317854881287	5.42584900092527	3.00457237069904	1.80586397380167	-7.56178168014697E-4	100.174268128451
480	5.61441713088621		4.39222669387531		0.714412152767181	5.61147154412888	3.13578385427109	1.78949564284725	-7.44179733374003E-4	100.171500610429
478	5.63128444038912		4.39638978223758		0.724068522453308	5.62833885363179	3.18118311620861	1.76925962700938	-7.52850247323639E-4	100.173500513949
476	5.82658756460873		4.53300551899638		0.734353184700012	5.8236419778514	3.32669281160273	1.75058002276011	-8.30923648057796E-4	100.191510387893
474	6.34844840725004		4.89535851071255		0.745478987693787	6.3455028204927	3.64722034485829	1.73981888136766	-0.00108355471537327	100.249809198013
472	6.95250911772696		5.29373925619101		0.757483243942261	6.94956353096962	4.00771733466629	1.73404533070651	-0.00115109058649193	100.265399966329
470	7.47535495548152		5.62141259960826		0.769963383674622	7.47240936872418	4.32604414589067	1.72730770115286	-0.00121132798101442	100.279307914935
468	7.83040703414092		5.83372153430679		0.781956672668457	7.82746144738359	4.55944490418788	1.7167575465588	-9.65876356354646E-4	100.222648745005
466	7.76952986641543		5.79058045537761		0.79232394695282	7.76658427965809	4.58571285541689	1.69364819048445	-7.47361704812166E-4	100.172234545661
464	7.34541097162575		5.51911125236078		0.800474584102631	7.34246538486842	4.41558189027382	1.66285340580856	-6.52875093275038E-4	100.150443097993
462	6.83362978714729		5.1833388855384		0.806607007980347	6.83068420038995	4.17857325326609	1.63469294095799	-6.61270636216484E-4	100.152379170192
460	6.37749272354023		4.87616115971504		0.811446130275726	6.3745471367829	3.95438382331661	1.61202033530384	-5.59444832285886E-4	100.128899937766
458	5.91794780350148		4.56318351692267		0.815723776817322	5.91500221674415	3.71992658041031	1.59008574198573	-4.47535191232624E-4	100.103101899496
456	5.48567290288502		4.26905797366434		0.819841384887695	5.48272731612769	3.49756772209577	1.56758288952941	-4.22867950712498E-4	100.097416362907
454	5.160914432503		4.0521448153514		0.823944866657257	5.15796884574567	3.3363493145417	1.54599184901423	-4.30592423270589E-4	100.099196736949
452	4.97132132535042		3.93573826552357		0.828078091144562	4.96837573859309	3.25669201288029	1.52558968393175	-3.95435924955259E-4	100.091093951964
450	4.80550913118876		3.82985430842713		0.832277178764343	4.80256354443142	3.18508151794101	1.50783065280415	-4.46529917083972E-4	100.102870188185
448	4.51548650783591		3.61927706805761		0.836676299571991	4.51254092107858	3.02573173844675	1.49138830245244	-4.35272334142397E-4	100.100275400995
446	4.1995480178874		3.37902289421293		0.841527163982391	4.19660243113007	2.84109384930265	1.47710799210668	-4.00822313927144E-4	100.092335351361
444	4.02904308204527		3.24391031418641		0.847182273864746	4.02609749528794	2.74572117702205	1.46631694761322	-3.9480394172041E-4	100.090948299993
442	4.00588619981358		3.21741653255399		0.853903293609619	4.00294061305625	2.74488090181017	1.45832943440877	-4.10911185818454E-4	100.094660571967
440	4.026044625026		3.22043177424117		0.861756920814514	4.02309903826867	2.77272487246214	1.45095500755407	-3.52639247068302E-4	100.081231162003
438	4.05325712003445		3.22694403007452		0.870642840862274	4.05031153327712	2.80698539577687	1.44294000936764	-2.98349384193705E-4	100.068721086581
436	4.0517062801969		3.21117567564534		0.880387842655182	4.04876069343957	2.82452138200561	1.43343248142263	-2.31457974598579E-4	100.053309372595
434	4.04505254243052		3.19284030706626		0.89086776971817	4.04210695567318	2.84180942247781	1.42237087529565	-1.87510208068725E-4	100.043185143088
432	4.05022163420674		3.18767682564158		0.901960015296936	4.0472760474494	2.87253570042876	1.40895587367123	-1.60158322885747E-4	100.036884617382
430	4.04074615817038		3.1768344013685		0.913509368896484	4.03780057141305	2.89941308557151	1.39262687041959	-1.07951596653452E-4	100.024859863274
428	3.9924990636366		3.14264935267697		0.925312757492065	3.98955347687927	2.90524433102834	1.37322476952124	-4.53170550296139E-5	100.010435181964
426	3.88688292392191		3.07067814202705		0.937117755413055	3.88393733716457	2.87486349223078	1.35099887269805	-4.13648535218759E-5	100.009525063115
424	3.76157266075075		2.98932372584822		0.948651552200317	3.75862707399341	2.83306955642322	1.32669777396455	-2.79363858940015E-6	100.000643261126
422	3.60989058616153		2.89019436833417		0.959735691547394	3.60694499940419	2.77103344118251	1.30166058113862	1.12087879764521E-5	99.9974191144949
420	3.44545244472874		2.77901649768466		0.970346570014954	3.44250685797141	2.69378903886428	1.27794226210928	-2.29039167480586E-5	100.005273960796
418	3.4773983064175		2.82395984955586		0.980484902858734	3.47445271966017	2.76600044637226	1.25612876318117	-5.55671620197565E-5	100.012795630464
416	3.29275073879594		2.69083167381828		0.990356862545013	3.28980515203861	2.66200537115739	1.23583715783724	-3.44103600778747E-5	100.007923592116
414	3.1527869087888		2.58911798770127		1.00001215934753	3.14984132203147	2.58624316583962	1.217921564235	-4.56256651472221E-5	100.01050624951
412	3.04961847902526		2.51280346652183		1.00975608825684	3.04667289226793	2.53438397659249	1.20213547765726	-8.9553565293643E-5	100.020622596612
410	2.96512942418708		2.44790369627335		1.01992154121399	2.96218383742975	2.49370554478992	1.18786431847121	-9.01229032528655E-5	100.020753718643
408	2.89873982728439		2.39482100849717		1.03081369400024	2.89579424052706	2.46561846886111	1.17446972315415	-1.11426456708192E-4	100.02566018148
406	2.84686856772604		2.35108436560553		1.0427668094635	2.8439229809687	2.44860218236169	1.16144753992897	-4.08440087113944E-5	100.009405122814
404	2.82754738372121		2.33143400435592		1.05597054958344	2.82460179696388	2.45885671294282	1.14874599324794	-7.38509219011551E-5	100.017006249086
402	2.84225740807649		2.33823855266858		1.07057654857636	2.83931182131916	2.50015197655477	1.13565569131191	7.15287273427813E-6	99.9983530037501
400	2.88355416572398		2.36483567414433		1.08671152591705	2.88060857896665	2.56673590850661	1.12228475450856	-1.92371730936062E-5	100.004429620904
398	2.94588947065068		2.40647482925139		1.10444903373718	2.94294388389335	2.65461897443329	1.10861253996785	-6.89002118221058E-5	100.0158661186
396	2.98520086941938		2.42838705572633		1.12384247779846	2.98225528266205	2.72585833775918	1.09406099405505	-5.38849846760729E-6	100.001240755322
394	2.99899281516505		2.42760624762398		1.14494717121124	2.99604722840772	2.77615338212395	1.07920810417021	-1.87244099019453E-5	100.004311547656
392	3.00090485861444		2.41598605968213		1.16786849498749	2.99795927185711	2.81815986400239	1.06380028690046	3.95412646522484E-5	99.9908957018117
390	3.00855345477529		2.40837206068912		1.1927295923233	3.00560786801795	2.86907023365495	1.04758950574349	7.87782997961746E-5	99.9818622712087
388	3.02233281507179		2.40587706802331		1.21966743469238	3.01938722831446	2.93082523068464	1.03021742705864	8.22292559376194E-5	99.981067806473
386	3.04749806643608		2.41134998792331		1.24875926971436	3.04455247967875	3.00756642020427	1.01229767004513	1.3319101617646E-4	99.9693363374254
384	3.08597271716125		2.42651190192523		1.2800178527832	3.08302713040392	3.10225847887905	0.993800855536034	1.49685485392689E-4	99.9655395822361
382	3.12496288057967		2.44229873291684		1.31333994865417	3.12201729382234	3.20375157395311	0.974487946944675	1.45723132037366E-4	99.9664516375687
380	3.15524841024381		2.45129102536137		1.34853053092957	3.15230282348648	3.30172159607833	0.954745193304811	1.93043913628198E-4	99.9555598737692
378	3.16831102493771		2.4469604467654		1.38519763946533	3.16536543818038	3.3854980784465	0.934977768362186	2.25486655925007E-4	99.9480932549543
376	3.16377156206522		2.4302820728086		1.42268002033234	3.16082597530789	3.45337905861555	0.91528497788918	2.68837791913865E-4	99.938116966243
374	3.16624907182095		2.41781231699906		1.45984888076782	3.16330348506362	3.52539789204803	0.897289776055871	2.83758704172265E-4	99.9346834843058
372	3.17099882766135		2.40802222670614		1.49508368968964	3.16805324090401	3.59584964091319	0.881030509412362	3.82431547647523E-4	99.9119806417125
370	3.18430198434647		2.40564901870781		1.52644109725952	3.18135639758914	3.66764528004623	0.867411146573323	4.36636401201528E-4	99.8995112769208
368	3.20821712341107		2.41106996595178		1.55208051204681	3.20527153665373	3.73766394461994	0.857560118872501	4.45182177784636E-4	99.8975455358389
366	3.24572305343698		2.42773931891251		1.57069170475006	3.24277746667965	3.80866515767299	0.851420991983688	5.59691383651315E-4	99.8712093028285
364	3.29700454248988		2.45497856929195		1.58188915252686	3.29405895573255	3.87890657382053	0.84922358738021	5.55671127509334E-4	99.8721338130807
362	3.36628219846306		2.49563547586778		1.58622550964355	3.36333661170573	3.95403065734646	0.850609644479301	5.93936806342974E-4	99.8633344688633
360	3.46267692708179		2.55605506058729		1.58506572246552	3.45973134032446	4.04690863467794	0.854907202667745	5.99680488971902E-4	99.8620137532418
358	3.56457068399887		2.62039675222472		1.58021354675293	3.56162509724153	4.13619392086487	0.861087551837222	6.12697736907213E-4	99.8590206019007
356	3.66571725341892		2.68455226466368		1.57342779636383	3.66277166666159	4.21937635035796	0.868083660361525	5.68753772255554E-4	99.8691253199463
354	3.78609672803557		2.76225500116961		1.56602263450623	3.78315114127823	4.32120257184298	0.875485719167461	6.01257818138664E-4	99.8616510615949
352	3.88729376132261		2.82661226897885		1.5587215423584	3.88434817456528	4.40137137221944	0.88253133990976	5.81998915208341E-4	99.8660795509448
350	3.98645356317248		2.88981901921457		1.55171358585358	3.98350797641515	4.47966173644415	0.889243030117082	5.65064318142923E-4	99.8699737399369
348	4.08401221024359		2.95166843547134		1.54492115974426	4.08106662348626	4.55560506679386	0.895834156747575	5.29595970220964E-4	99.8781303428223
346	4.15193514942531		2.99325213159424		1.53825569152832	4.14898956266798	4.59991654352944	0.901970616946134	5.27212298510638E-4	99.8786785361268
344	4.21728823754308		3.03323939950087		1.53176784515381	4.21434265078575	4.641766850158	0.907917779334887	5.83654061850389E-4	99.865698950458
342	4.27458875733365		3.0679465160614		1.52565002441406	4.27164317057631	4.6761787285088	0.913490141968656	5.79245039049894E-4	99.8667128071775
340	4.32175395001628		3.09645883772482		1.52019774913788	4.31880836325895	4.70281165256198	0.918346019855199	6.05867371544362E-4	99.8605911467443
338	4.35389032439959		3.1156993723159		1.51563549041748	4.35094473764225	4.71785970245692	0.922228512937002	5.94545184223262E-4	99.8631945762242
336	4.3792801924622		3.13164850067014		1.51205241680145	4.37633460570486	4.73082225368842	0.925068491485349	6.9191302527299E-4	99.8408079833627
334	4.40112304393742		3.14621524865881		1.509321808815	4.39817745718008	4.74426479558455	0.927051428763723	6.46123855121831E-4	99.851335100204
332	4.41801315617462		3.15894813679153		1.50713872909546	4.41506756941728	4.75659293033578	0.928199581944384	6.72590498373241E-4	99.8452501756889
330	4.42436021913754		3.16528048539904		1.50508224964142	4.4214146323802	4.75963330056527	0.928940183659759	6.51328785608564E-4	99.8501384095585
328	4.43298878355618		3.17446786817483		1.50281250476837	4.43004319679885	4.76626243162137	0.929458513951749	6.41421280739136E-4	99.8524163040698
326	4.44416482110918		3.18603484566767		1.50003707408905	4.44121923435185	4.77481087733072	0.93013510868825	6.6850108240396E-4	99.8461903457806
324	4.44754794121285		3.19192254583946		1.49670660495758	4.44460235445552	4.77302172559812	0.931192567303589	6.12979014698813E-4	99.8589559266242
322	4.45625077565073		3.20204039247872		1.49285399913788	4.4533051888934	4.77584017074703	0.932465289808227	6.55013101684606E-4	99.8492913393676
320	4.45547036305619		3.20547511414468		1.48856663703918	4.45252477629886	4.76723713643475	0.933984328631226	7.16764635329169E-4	99.8350949615733
318	4.45225114676046		3.20752206970291		1.48398268222809	4.44930556000313	4.75559435216663	0.935594003718178	7.51294703235393E-4	99.8271575465
316	4.45056674735313		3.21049671568711		1.47929048538208	4.4476211605958	4.74495802951342	0.937336248905007	7.24025048669484E-4	99.8334259604078
314	4.44515388604663		3.21180373960767		1.47470772266388	4.4422082992893	4.73218588186618	0.93872227553696	7.09565111882259E-4	99.8367499931122
312	4.42213986758391		3.20211050234172		1.4705822467804	4.41919428082657	4.70469295009945	0.939316195062881	7.42727048802535E-4	99.8291269314704
310	4.37560770712531		3.17670686474791		1.46730136871338	4.37266212036798	4.65692195888507	0.938959716089992	7.89311837767792E-4	99.8184192904724
308	4.31984224348095		3.14686681848043		1.46517074108124	4.31689665672361	4.60643900893219	0.937143995253788	8.45266619289441E-4	99.8055594493198
306	4.24425477307986		3.10387092753895		1.46460235118866	4.24130918632252	4.54168013056858	0.933863474394782	8.68397856893033E-4	99.8002437828159
304	4.14483306205135		3.04538818607342		1.46600341796875	4.14188747529401	4.46028889025793	0.928614172131459	9.87776074137202E-4	99.772814611178
302	4.03080947119837		2.9778929080228		1.46987640857697	4.02786388444103	4.37286267725338	0.921104590224854	0.00104940448338283	99.7586573887109
300	3.90112746976343		2.89978508118647		1.47676849365234	3.89818188300609	4.27801936049148	0.911211837657101	0.00116373902054307	99.7323978824418
298	3.75467040003614		2.80993998877203		1.48699593544006	3.75172481327881	4.17404773267472	0.898821732178591	0.00120200330627775	99.7236111696986
296	3.59501594754909		2.71169280410602		1.50046861171722	3.59207036079175	4.06444917250595	0.883777901588827	0.00130211164207899	99.7006267325041
294	3.43391186860298		2.61326872490946		1.51656138896942	3.43096628184565	3.9587749125927	0.866673745691348	0.00133872797723904	99.6922211049347
292	3.26413436683998		2.50952264133963		1.53407180309296	3.26118878008264	3.84532949873101	0.848090854414131	0.00147420792318332	99.661126557719
290	3.08974717515398		2.40552525405987		1.55143797397614	3.08680158839665	3.72751433118004	0.828112601090776	0.00161828382147144	99.6280697599566
288	2.91480923639987		2.30362027888112		1.5670200586319	2.91186364964254	3.60526500342896	0.80766979594373	0.00180348818977116	99.58559254523
286	2.75025683959645		2.2130974520944		1.57947659492493	2.74731125283912	3.49094524478297	0.786982052194841	0.0019919297556109	99.542391456933
284	2.59592046570143		2.13243639040499		1.58776938915253	2.5929748789441	3.38120274082511	0.766879444298375	0.00209542450454397	99.5186727871971
282	2.45041252438832		2.06083270660907		1.59137940406799	2.44746693763099	3.27494174867987	0.747331441427185	0.00225853873474688	99.4813021450494
280	2.31054041801363		1.99464871761571		1.58992433547974	2.3075948312563	3.16671978984319	0.728701932724703	0.00243080032920877	99.4418510116402
278	2.17574114609132		1.93315077352551		1.58293581008911	2.17279555933399	3.05545314921877	0.711120561573505	0.00258236272260534	99.4071533215114
276	2.03826482583987		1.87387475569596		1.57034659385681	2.03531923908254	2.93806899106788	0.692740451388371	0.00284823584952917	99.3463153339823
274	1.91646082486173		1.82421868899984		1.55212950706482	1.9135152381044	2.82691274942789	0.676892216957052	0.00303492960216685	99.3036176916773
272	1.81385829841624		1.78821027605779		1.52859377861023	1.81091271165891	2.72900459886738	0.663579941349491	0.00326634621241908	99.2507172152006
270	1.71212583544384		1.75269309846533		1.50029420852661	1.7091802486865	2.62519504714001	0.651067908477334	0.00345280950116367	99.2081133056497
268	1.61497659999218		1.72404864545479		1.46789693832397	1.61203101323485	2.52645962553875	0.638059281430667	0.00367859277637537	99.1565498801425
266	1.52053503298674		1.69045036189764		1.4328498840332	1.51758944622941	2.4179973585132	0.627622458265446	0.00405705798230355	99.0701777091205
264	1.42522715006679		1.65072550121653		1.39660704135895	1.42228156330946	2.30135594328639	0.618018941163185	0.0044209447452916	98.9872035313077
262	1.32595220905723		1.6012887973125		1.36122608184814	1.32300662229989	2.17575998697807	0.608066436655738	0.00518068846131545	98.8141892137238
260	1.22297539550386		1.53802726192075		1.32817053794861	1.22002980874652	2.03890247563623	0.598375755253236	0.00523847122084585	98.8010428880219
258	1.10857415084379		1.45496437651047		1.29872870445251	1.10562856408646	1.88582954539485	0.586282342848206	0.00549320865390876	98.7431076729955
256	1.00104992733545		1.36660370181471		1.27363526821136	0.998104340578117	1.7368531462278	0.574662482401497	0.00579233510775442	98.6751203802618
254	0.894910309839642		1.27123914744723		1.25334393978119	0.891964723082308	1.58965732744279	0.561105030426383	0.00598841384510298	98.6305798052385
252	0.796419533560829		1.1756867592182		1.23830378055573	0.793473946803495	1.45225851540752	0.546372383694259	0.00600461036304441	98.626901558716
250	0.711366280726856		1.08723558525523		1.22890412807465	0.708420693969522	1.33253677354212	0.531633128657616	0.00599105399818287	98.6299802142964
248	0.63028112022322		0.99752153471039		1.22555267810822	0.627335533465886	1.21895340318074	0.514650955343258	0.00566289972628446	98.7045334993202
246	0.556899514681478		0.911521503926099		1.22850966453552	0.553953927924144	1.11624259805444	0.496266608073961	0.00562228662793296	98.7137642967088
244	0.488205304750888		0.826834545341152		1.23797678947449	0.485259717993554	1.02000408291023	0.475742917233264	0.00565588924790792	98.7061268227713
242	0.423905868057132		0.743522035603251		1.25420773029327	0.420960281299798	0.928886020267016	0.453188305254922	0.00538695937692574	98.7672679321911
240	0.363580770947105		0.662088302713312		1.27778804302216	0.360635184189771	0.842294921481621	0.428157851831047	0.00532201400618389	98.7820389153416
238	0.3087891436636		0.584443297835578		1.31094789505005	0.305843556906266	0.762364744489674	0.401177466713781	0.00516970805905611	98.8166875951407
236	0.257912065925001		0.509211007791953		1.35220301151276	0.254966479167667	0.684626793201939	0.372416741061522	0.00504772580731422	98.8444465825041
